


  RMIN =  .750  MAXV   = 20  BE =    1.9730
  RMAX = 3.500  KDMAXV = 20  RE =    1.1501
  DELR =  .005  NEIG   =  0  DE =57951.2800
  ZMU  = 6.462


 THE KLEIN DUNHAM POTENTIAL PRODUCED FOR THIS STATE COVERS THE REGION FROM    .935 TO   1.695 ANGSTROMS
 THE TO TAL POTENTIAL FUNCTION I

         RADIUS           ENERGY            RADIUS           ENERGY            RADIUS           ENERGY
          .7500          212348.900          .7550          203850.500          .7600          195635.000
          .7650          187694.200          .7700          180020.100          .7750          172605.000
          .7800          165441.100          .7850          158521.200          .7900          151838.000
          .7950          145384.700          .8000          139154.400          .8050          133140.600
          .8100          127336.800          .8150          121736.900          .8200          116334.800
          .8250          111124.500          .8300          106100.400          .8350          101256.900
          .8400           96588.700          .8450           92090.430          .8500           87757.020
          .8550           83583.500          .8600           79565.050          .8650           75697.000
          .8700           71974.770          .8750           68393.950          .8800           64950.220
          .8850           61639.410          .8900           58457.450          .8950           55400.380
          .9000           52464.380          .9050           49645.710          .9100           46940.750
          .9150           44345.960          .9200           41857.940          .9250           39473.360
          .9300           37188.980          .9350           34609.860          .9400           32921.600
          .9450           31238.250          .9500           29570.770          .9550           27927.580
          .9600           26316.680          .9650           24743.850          .9700           23214.150
          .9750           21731.740          .9800           20299.470          .9850           18919.790
          .9900           17594.050          .9950           16323.270         1.0000           15108.090
         1.0050           13948.420         1.0100           12844.000         1.0150           11794.460
         1.0200           10799.020         1.0250            9856.848         1.0300            8966.886
         1.0350            8128.048         1.0400            7339.097         1.0450            6598.890
         1.0500            5905.993         1.0550            5259.220         1.0600            4657.140
         1.0650            4098.400         1.0700            3581.717         1.0750            3105.722
         1.0800            2669.078         1.0850            2270.494         1.0900            1908.681
         1.0950            1582.346         1.1000            1290.280         1.1050            1031.246
         1.1100             804.064         1.1150             607.570         1.1200             440.635
         1.1250             302.157         1.1300             191.077         1.1350             106.350
         1.1400              46.907         1.1450              11.775         1.1500                .004
         1.1550              10.669         1.1600              42.872         1.1650              95.740
         1.1700             168.426         1.1750             260.107         1.1800             369.988
         1.1850             497.298         1.1900             641.291         1.1950             801.242
         1.2000             976.434         1.2050            1166.205         1.2100            1369.896
         1.2150            1586.862         1.2200            1816.481         1.2250            2058.184
         1.2300            2311.389         1.2350            2575.508         1.2400            2850.034
         1.2450            3134.427         1.2500            3428.213         1.2550            3730.873
         1.2600            4041.959         1.2650            4361.002         1.2700            4687.574
         1.2750            5021.263         1.2800            5361.600         1.2850            5708.276
         1.2900            6060.847         1.2950            6418.944         1.3000            6782.280
         1.3050            7150.460         1.3100            7523.136         1.3150            7899.968
         1.3200            8280.772         1.3250            8665.126         1.3300            9052.778
         1.3350            9443.464         1.3400            9836.979         1.3450           10232.920
         1.3500           10631.140         1.3550           11031.380         1.3600           11433.360
         1.3650           11836.980         1.3700           12241.960         1.3750           12648.100
         1.3800           13055.170         1.3850           13462.980         1.3900           13871.440
         1.3950           14280.250         1.4000           14689.360         1.4050           15098.510
         1.4100           15507.570         1.4150           15916.450         1.4200           16324.960
1
         1.4250           16733.110         1.4300           17140.420         1.4350           17546.880
         1.4400           17952.500         1.4450           18357.340         1.4500           18760.880
         1.4550           19163.320         1.4600           19564.380         1.4650           19964.040
         1.4700           20362.250         1.4750           20759.040         1.4800           21153.820
         1.4850           21547.040         1.4900           21938.160         1.4950           22327.690
         1.5000           22715.010         1.5050           23100.410         1.5100           23483.600
         1.5150           23864.810         1.5200           24243.700         1.5250           24620.500
         1.5300           24994.920         1.5350           25366.840         1.5400           25736.320
         1.5450           26103.330         1.5500           26468.030         1.5550           26829.940
         1.5600           27189.500         1.5650           27546.270         1.5700           27900.600
         1.5750           28252.230         1.5800           28601.240         1.5850           28947.480
         1.5900           29290.990         1.5950           29631.610         1.6000           29969.710
         1.6050           30304.840         1.6100           30637.400         1.6150           30966.820
         1.6200           31293.680         1.6250           31617.340         1.6300           31938.540
         1.6350           32256.920         1.6400           32572.210         1.6450           32884.850
         1.6500           33194.460         1.6550           33501.460         1.6600           33805.000
         1.6650           34105.970         1.6700           34404.330         1.6750           34699.880
         1.6800           34992.220         1.6850           35281.800         1.6900           35568.510
         1.6950           35852.310         1.7000           36133.050         1.7050           36410.860
         1.7100           36685.700         1.7150           36957.600         1.7200           37226.570
         1.7250           37492.610         1.7300           37755.750         1.7350           38016.010
         1.7400           38273.390         1.7450           38527.910         1.7500           38779.590
         1.7550           39028.450         1.7600           39274.500         1.7650           39517.770
         1.7700           39758.270         1.7750           39996.020         1.7800           40231.040
         1.7850           40463.350         1.7900           40692.960         1.7950           40919.910
         1.8000           41144.200         1.8050           41365.870         1.8100           41584.930
         1.8150           41801.390         1.8200           42015.290         1.8250           42226.640
         1.8300           42435.470         1.8350           42641.800         1.8400           42845.640
         1.8450           43047.020         1.8500           43245.970         1.8550           43442.500
         1.8600           43636.630         1.8650           43828.390         1.8700           44017.800
         1.8750           44204.890         1.8800           44389.660         1.8850           44572.160
         1.8900           44752.390         1.8950           44930.380         1.9000           45106.160
         1.9050           45279.740         1.9100           45451.140         1.9150           45620.390
         1.9200           45787.520         1.9250           45952.540         1.9300           46115.460
         1.9350           46276.330         1.9400           46435.160         1.9450           46591.960
         1.9500           46746.760         1.9550           46899.590         1.9600           47050.450
         1.9650           47199.390         1.9700           47346.400         1.9750           47491.530
         1.9800           47634.780         1.9850           47776.180         1.9900           47915.750
         1.9950           48053.500         2.0000           48189.470         2.0050           48323.670
         2.0100           48456.120         2.0150           48586.830         2.0200           48715.840
         2.0250           48843.160         2.0300           48968.800         2.0350           49092.790
         2.0400           49215.160         2.0450           49335.910         2.0500           49455.060
         2.0550           49572.640         2.0600           49688.660         2.0650           49803.140
         2.0700           49916.110         2.0750           50027.570         2.0800           50137.550
         2.0850           50246.060         2.0900           50353.130         2.0950           50458.770
1
         2.1000           50562.990         2.1050           50665.810         2.1100           50767.260
         2.1150           50867.350         2.1200           50966.090         2.1250           51063.500
         2.1300           51159.600         2.1350           51254.410         2.1400           51347.930
         2.1450           51440.200         2.1500           51531.210         2.1550           51620.990
         2.1600           51709.560         2.1650           51796.930         2.1700           51883.110
         2.1750           51968.110         2.1800           52051.960         2.1850           52134.680
         2.1900           52216.260         2.1950           52296.730         2.2000           52376.100
         2.2050           52454.390         2.2100           52531.610         2.2150           52607.770
         2.2200           52682.890         2.2250           52756.980         2.2300           52830.050
         2.2350           52902.130         2.2400           52973.210         2.2450           53043.310
         2.2500           53112.450         2.2550           53180.640         2.2600           53247.890
         2.2650           53314.210         2.2700           53379.620         2.2750           53444.130
         2.2800           53507.740         2.2850           53570.470         2.2900           53632.340
         2.2950           53693.350         2.3000           53753.520         2.3050           53812.850
         2.3100           53871.360         2.3150           53929.060         2.3200           53985.960
         2.3250           54042.070         2.3300           54097.390         2.3350           54151.960
         2.3400           54205.760         2.3450           54258.810         2.3500           54311.120
         2.3550           54362.710         2.3600           54413.570         2.3650           54463.730
         2.3700           54513.190         2.3750           54561.950         2.3800           54610.040
         2.3850           54657.450         2.3900           54704.200         2.3950           54750.300
         2.4000           54795.750         2.4050           54840.570         2.4100           54884.760
         2.4150           54928.330         2.4200           54971.290         2.4250           55013.650
         2.4300           55055.410         2.4350           55096.590         2.4400           55137.190
         2.4450           55177.220         2.4500           55216.680         2.4550           55255.600
         2.4600           55293.960         2.4650           55331.790         2.4700           55369.080
         2.4750           55405.850         2.4800           55442.100         2.4850           55477.840
         2.4900           55513.080         2.4950           55547.820         2.5000           55582.070
         2.5050           55615.840         2.5100           55649.140         2.5150           55681.960
         2.5200           55714.320         2.5250           55746.220         2.5300           55777.670
         2.5350           55808.680         2.5400           55839.250         2.5450           55869.390
         2.5500           55899.100         2.5550           55928.390         2.5600           55957.270
         2.5650           55985.740         2.5700           56013.800         2.5750           56041.470
         2.5800           56068.750         2.5850           56095.640         2.5900           56122.140
         2.5950           56148.280         2.6000           56174.040         2.6050           56199.440
         2.6100           56224.480         2.6150           56249.160         2.6200           56273.500
         2.6250           56297.480         2.6300           56321.130         2.6350           56344.440
         2.6400           56367.420         2.6450           56390.070         2.6500           56412.410
         2.6550           56434.420         2.6600           56456.120         2.6650           56477.520
         2.6700           56498.610         2.6750           56519.390         2.6800           56539.890
         2.6850           56560.090         2.6900           56580.000         2.6950           56599.640
         2.7000           56618.990         2.7050           56638.070         2.7100           56656.870
         2.7150           56675.410         2.7200           56693.680         2.7250           56711.700
         2.7300           56729.450         2.7350           56746.950         2.7400           56764.210
         2.7450           56781.220         2.7500           56797.980         2.7550           56814.510
         2.7600           56830.800         2.7650           56846.860         2.7700           56862.690
1
         2.7750           56878.290         2.7800           56893.680         2.7850           56908.840
         2.7900           56923.780         2.7950           56938.510         2.8000           56953.040
         2.8050           56967.350         2.8100           56981.460         2.8150           56995.370
         2.8200           57009.080         2.8250           57022.590         2.8300           57035.910
         2.8350           57049.040         2.8400           57061.990         2.8450           57074.750
         2.8500           57087.320         2.8550           57099.710         2.8600           57111.940
         2.8650           57123.980         2.8700           57135.850         2.8750           57147.550
         2.8800           57159.090         2.8850           57170.460         2.8900           57181.660
         2.8950           57192.710         2.9000           57203.600         2.9050           57214.340
         2.9100           57224.910         2.9150           57235.340         2.9200           57245.620
         2.9250           57255.750         2.9300           57265.740         2.9350           57275.580
         2.9400           57285.290         2.9450           57294.850         2.9500           57304.280
         2.9550           57313.570         2.9600           57322.730         2.9650           57331.750
         2.9700           57340.650         2.9750           57349.430         2.9800           57358.070
         2.9850           57366.590         2.9900           57374.990         2.9950           57383.270
         3.0000           57391.430         3.0050           57399.470         3.0100           57407.400
         3.0150           57415.210         3.0200           57422.920         3.0250           57430.510
         3.0300           57437.990         3.0350           57445.370         3.0400           57452.640
         3.0450           57459.800         3.0500           57466.870         3.0550           57473.830
         3.0600           57480.690         3.0650           57487.450         3.0700           57494.120
         3.0750           57500.690         3.0800           57507.170         3.0850           57513.550
         3.0900           57519.840         3.0950           57526.050         3.1000           57532.160
         3.1050           57538.180         3.1100           57544.120         3.1150           57549.980
         3.1200           57555.750         3.1250           57561.430         3.1300           57567.040
         3.1350           57572.560         3.1400           57578.010         3.1450           57583.370
         3.1500           57588.660         3.1550           57593.880         3.1600           57599.020
         3.1650           57604.080         3.1700           57609.070         3.1750           57614.000
         3.1800           57618.850         3.1850           57623.630         3.1900           57628.340
         3.1950           57632.980         3.2000           57637.560         3.2050           57642.070
         3.2100           57646.520         3.2150           57650.900         3.2200           57655.220
         3.2250           57659.480         3.2300           57663.680         3.2350           57667.820
         3.2400           57671.890         3.2450           57675.910         3.2500           57679.870
         3.2550           57683.780         3.2600           57687.630         3.2650           57691.420
         3.2700           57695.160         3.2750           57698.840         3.2800           57702.470
         3.2850           57706.050         3.2900           57709.580         3.2950           57713.050
         3.3000           57716.480         3.3050           57719.860         3.3100           57723.190
         3.3150           57726.470         3.3200           57729.710         3.3250           57732.890
         3.3300           57736.040         3.3350           57739.130         3.3400           57742.190
         3.3450           57745.200         3.3500           57748.160         3.3550           57751.080
         3.3600           57753.960         3.3650           57756.800         3.3700           57759.600
         3.3750           57762.360         3.3800           57765.080         3.3850           57767.760
         3.3900           57770.400         3.3950           57773.000         3.4000           57775.570
         3.4050           57778.090         3.4100           57780.590         3.4150           57783.040
         3.4200           57785.460         3.4250           57787.850         3.4300           57790.200
         3.4350           57792.520         3.4400           57794.800         3.4450           57797.060
1
         3.4500           57799.280         3.4550           57801.460         3.4600           57803.620
         3.4650           57805.750         3.4700           57807.840         3.4750           57809.910
         3.4800           57811.940         3.4850           57813.950         3.4900           57815.920
